0.00025,7.23E-02
0.0005,5.34E-02
0.00075,1.05E-01
0.001,9.98E-02
0.00125,8.95E-02
0.0015,7.61E-02
0.00175,1.12E-01
0.002,7.25E-02
0.00225,4.99E-02
0.0025,1.42E-01
0.00275,8.53E-02
0.003,9.62E-02
0.00325,8.99E-02
0.0035,1.11E-01
0.00375,6.67E-02
0.004,1.38E-01
0.00425,7.52E-02
0.0045,9.06E-02
0.00475,8.14E-02
0.005,9.96E-02
0.00525,1.00E-01
0.0055,9.55E-02
0.00575,4.42E-02
0.006,1.09E-01
0.00625,6.61E-02
0.0065,6.47E-02
0.00675,7.72E-02
0.007,1.27E-01
0.00725,8.68E-02
0.0075,5.52E-02
0.00775,5.47E-02
0.008,8.05E-02
0.00825,9.63E-02
0.0085,2.98E-02
0.00875,1.04E-01
0.009,5.48E-02
0.00925,4.92E-02
0.0095,1.21E-01
0.00975,1.07E-01
0.01,9.22E-02
0.01025,9.56E-02
0.0105,7.59E-02
0.01075,8.11E-02
0.011,6.17E-02
0.01125,7.26E-02
0.0115,9.04E-02
0.01175,6.23E-02
0.012,3.11E-02
0.01225,1.04E-01
0.0125,1.06E-01
0.01275,6.09E-02
0.013,9.67E-02
0.01325,1.01E-01
0.0135,8.96E-02
0.01375,6.92E-02
0.014,1.15E-01
0.01425,5.97E-02
0.0145,1.20E-01
0.01475,7.78E-02
0.015,1.04E-01
0.01525,2.60E-02
0.0155,6.97E-02
0.01575,9.06E-02
0.016,5.48E-02
0.01625,6.77E-02
0.0165,5.53E-02
0.01675,6.74E-02
0.017,9.26E-02
0.01725,1.20E-01
0.0175,9.37E-02
0.01775,8.12E-02
0.018,6.36E-02
0.01825,1.03E-01
0.0185,8.47E-02
0.01875,1.22E-01
0.019,1.20E-01
0.01925,6.49E-02
0.0195,1.22E-01
0.01975,4.42E-02
0.02,1.19E-01
0.02025,6.44E-02
0.0205,6.87E-02
0.02075,9.86E-02
0.021,1.34E-01
0.02125,3.98E-02
0.0215,5.89E-02
0.02175,1.01E-01
0.022,7.66E-02
0.02225,9.02E-02
0.0225,1.35E-01
0.02275,5.08E-02
0.023,7.99E-02
0.02325,3.12E-02
0.0235,5.45E-02
0.02375,5.89E-02
0.024,7.40E-02
0.02425,8.26E-02
0.0245,9.21E-02
0.02475,5.73E-02
0.025,3.87E-02
0.02525,9.37E-02
0.0255,1.38E-01
0.02575,5.10E-02
0.026,4.51E-02
0.02625,9.70E-02
0.0265,2.70E-02
0.02675,8.11E-02
0.027,5.63E-02
0.02725,1.08E-01
0.0275,5.59E-02
0.02775,9.89E-02
0.028,6.94E-02
0.02825,1.32E-01
0.0285,9.27E-02
0.02875,9.43E-02
0.029,1.03E-01
0.02925,1.28E-01
0.0295,3.22E-02
0.02975,8.78E-02
0.03,7.41E-02
0.03025,1.25E-01
0.0305,3.52E-02
0.03075,5.23E-02
0.031,6.49E-02
0.03125,7.11E-02
0.0315,9.52E-02
0.03175,1.04E-01
0.032,7.71E-02
0.03225,9.41E-02
0.0325,9.20E-02
0.03275,7.78E-02
0.033,3.16E-02
0.03325,7.50E-02
0.0335,9.60E-02
0.03375,1.05E-01
0.034,9.22E-02
0.03425,4.70E-02
0.0345,8.39E-02
0.03475,4.19E-02
0.035,4.72E-02
0.03525,1.18E-01
0.0355,4.00E-02
0.03575,8.72E-02
0.036,1.43E-01
0.03625,5.93E-02
0.0365,6.48E-02
0.03675,9.71E-02
0.037,8.66E-02
0.03725,1.41E-01
0.0375,1.29E-01
0.03775,6.53E-02
0.038,9.96E-02
0.03825,6.05E-02
0.0385,5.18E-02
0.03875,1.41E-01
0.039,1.35E-01
0.03925,6.50E-02
0.0395,4.22E-02
0.03975,1.00E-01
0.04,8.99E-02
0.04025,8.15E-02
0.0405,7.23E-02
0.04075,1.30E-01
0.041,1.09E-01
0.04125,5.21E-02
0.0415,1.24E-01
0.04175,7.70E-02
0.042,9.98E-02
0.04225,1.23E-01
0.0425,7.92E-02
0.04275,9.23E-02
0.043,9.75E-02
0.04325,1.03E-01
0.0435,3.51E-02
0.04375,6.48E-02
0.044,9.85E-02
0.04425,4.98E-02
0.0445,6.87E-02
0.04475,9.59E-02
0.045,1.16E-01
0.04525,8.32E-02
0.0455,6.79E-02
0.04575,7.88E-02
0.046,5.17E-02
0.04625,1.38E-01
0.0465,8.06E-02
0.04675,1.27E-01
0.047,2.50E-02
0.04725,2.84E-02
0.0475,7.74E-02
0.04775,8.77E-02
0.048,2.79E-02
0.04825,5.21E-02
0.0485,1.28E-01
0.04875,7.66E-02
0.049,1.15E-01
0.04925,1.18E-01
0.0495,3.97E-02
0.04975,7.68E-02
0.05,6.87E-02
0.05025,6.20E-02
0.0505,7.95E-02
0.05075,5.04E-02
0.051,6.21E-02
0.05125,9.06E-02
0.0515,3.19E-02
0.05175,9.82E-02
0.052,1.06E-01
0.05225,5.43E-02
0.0525,1.14E-01
0.05275,6.06E-02
0.053,5.54E-02
0.05325,7.12E-02
0.0535,7.70E-02
0.05375,7.44E-02
0.054,1.24E-01
0.05425,6.84E-02
0.0545,8.59E-02
0.05475,1.09E-01
0.055,3.39E-02
0.05525,1.13E-01
0.0555,6.78E-02
0.05575,5.89E-02
0.056,5.34E-02
0.05625,8.02E-02
0.0565,1.04E-01
0.05675,3.11E-02
0.057,9.58E-02
0.05725,2.62E-02
0.0575,2.65E-02
0.05775,1.22E-01
0.058,4.60E-02
0.05825,8.84E-02
0.0585,1.11E-01
0.05875,7.60E-02
0.059,1.02E-01
0.05925,9.53E-02
0.0595,6.54E-02
0.05975,7.04E-02
0.06,8.68E-02
0.06025,1.07E-01
0.0605,1.14E-01
0.06075,9.67E-02
0.061,1.13E-01
0.06125,7.42E-02
0.0615,7.78E-02
0.06175,4.81E-02
0.062,7.08E-02
0.06225,5.79E-02
0.0625,9.71E-02
0.06275,3.68E-02
0.063,6.12E-02
0.06325,5.92E-02
0.0635,1.03E-01
0.06375,7.51E-02
0.064,3.73E-02
0.06425,6.59E-02
0.0645,1.01E-01
0.06475,5.52E-02
0.065,8.13E-02
0.06525,5.21E-02
0.0655,1.21E-01
0.06575,1.09E-01
0.066,7.79E-02
0.06625,8.76E-02
0.0665,6.86E-02
0.06675,1.23E-01
0.067,1.02E-01
0.06725,8.18E-02
0.0675,9.76E-02
0.06775,1.06E-01
0.068,6.14E-02
0.06825,5.61E-02
0.0685,6.50E-02
0.06875,1.14E-01
0.069,1.06E-01
0.06925,8.69E-02
0.0695,1.04E-01
0.06975,7.88E-02
0.07,4.87E-02
0.07025,3.69E-02
0.0705,6.56E-02
0.07075,9.61E-02
0.071,5.93E-02
0.07125,1.35E-01
0.0715,7.36E-02
0.07175,9.31E-02
0.072,9.57E-02
0.07225,9.08E-02
0.0725,1.08E-01
0.07275,3.22E-02
0.073,5.16E-02
0.07325,4.55E-02
0.0735,9.90E-02
0.07375,5.55E-02
0.074,1.16E-01
0.07425,8.56E-02
0.0745,6.24E-02
0.07475,8.37E-02
0.075,8.21E-02
0.07525,1.40E-02
0.0755,1.05E-01
0.07575,6.88E-02
0.076,1.21E-01
0.07625,1.23E-01
0.0765,9.00E-02
0.07675,1.10E-01
0.077,-2.18E-01
0.07725,-1.60E-01
0.0775,7.53E-01
0.07775,1.27E+00
0.078,-5.26E-01
0.07825,-2.67E-01
0.0785,-1.88E-01
0.07875,1.95E-02
0.079,-3.32E-01
0.07925,8.17E-01
0.0795,3.22E-01
0.07975,1.80E-01
0.08,-2.56E-01
0.08025,1.06E+00
0.0805,4.75E-01
0.08075,-7.84E-01
0.081,7.47E-01
0.08125,-6.55E-01
0.0815,7.39E-01
0.08175,6.11E-01
0.082,-3.51E-01
0.08225,-5.57E-02
0.0825,1.76E-01
0.08275,-4.76E-01
0.083,3.42E-01
0.08325,-2.78E-01
0.0835,3.58E-01
0.08375,-4.89E-01
0.084,-7.67E-01
0.08425,7.91E-01
0.0845,-4.83E-01
0.08475,9.85E-01
0.085,-2.63E-01
0.08525,-5.55E-01
0.0855,-6.60E-01
0.08575,3.82E-01
0.086,6.63E-01
0.08625,-4.31E-01
0.0865,-8.24E-01
0.08675,-6.49E-01
0.087,2.42E-01
0.08725,-5.47E-02
0.0875,-6.84E-01
0.08775,-8.06E-01
0.088,-4.44E-01
0.08825,-2.36E-01
0.0885,-6.78E-01
0.08875,5.39E-01
0.089,1.65E-01
0.08925,9.09E-01
0.0895,-2.61E-01
0.08975,6.54E-01
0.09,5.96E-01
0.09025,2.35E-01
0.0905,3.71E-01
0.09075,1.81E-01
0.091,5.09E-01
0.09125,-6.87E-01
0.0915,9.09E-01
0.09175,6.67E-01
0.092,-5.20E-01
0.09225,3.55E-01
0.0925,9.76E-01
0.09275,1.75E-01
0.093,5.01E-02
0.09325,-6.40E-01
0.0935,4.03E-01
0.09375,4.94E-01
0.094,4.77E-01
0.09425,-1.81E-01
0.0945,8.66E-01
0.09475,3.94E-01
0.095,-1.86E-01
0.09525,-6.91E-01
0.0955,1.90E-01
0.09575,3.14E-01
0.096,-5.62E-02
0.09625,-3.71E-01
0.0965,7.69E-01
0.09675,5.12E-01
0.097,-6.12E-01
0.09725,-1.26E-01
0.0975,1.67E-01
0.09775,8.79E-01
0.098,1.31E-03
0.09825,-4.60E-01
0.0985,1.99E-01
0.09875,-4.18E-01
0.099,-2.85E-02
0.09925,-8.06E-01
0.0995,8.33E-01
0.09975,2.78E-01
0.1,1.89E-01
0.10025,1.32E-01
0.1005,1.02E+00
0.10075,-8.08E-01
0.101,-7.14E-01
0.10125,3.31E-01
0.1015,5.71E-01
0.10175,-6.52E-01
0.102,8.13E-01
0.10225,-1.42E-01
0.1025,6.80E-01
0.10275,8.82E-02
0.103,-2.98E-02
0.10325,-5.16E-01
0.1035,3.13E-01
0.10375,2.00E-01
0.104,-2.56E-01
0.10425,9.06E-02
0.1045,-7.80E-01
0.10475,-9.20E-01
0.105,9.03E-01
0.10525,1.05E+00
0.1055,9.75E-01
0.10575,-8.15E-01
0.106,9.06E-01
0.10625,-1.84E-01
0.1065,-3.58E-02
0.10675,5.00E-01
0.107,2.74E-01
0.10725,-4.62E-01
0.1075,-8.37E-01
0.10775,4.30E-01
0.108,3.14E-01
0.10825,9.53E-01
0.1085,-2.73E-01
0.10875,2.75E-01
0.109,5.82E-01
0.10925,7.93E-01
0.1095,8.40E-01
0.10975,2.90E-01
0.11,-6.44E-01
0.11025,-5.60E-01
0.1105,7.46E-01
0.11075,-4.01E-01
0.111,1.06E+00
0.11125,9.29E-01
0.1115,-6.76E-01
0.11175,1.54E-01
0.112,2.07E-02
0.11225,4.57E-01
0.1125,5.53E-01
0.11275,6.52E-01
0.113,-7.10E-01
0.11325,-1.95E-01
0.1135,1.53E-01
0.11375,7.80E-01
0.114,2.53E-01
0.11425,3.60E-01
0.1145,-7.59E-01
0.11475,-7.54E-01
0.115,4.72E-01
0.11525,-6.45E-01
0.1155,-3.91E-01
0.11575,-4.87E-02
0.116,3.17E-01
0.11625,-7.48E-01
0.1165,-4.54E-01
0.11675,-5.61E-01
0.117,-6.02E-02
0.11725,-7.44E-01
0.1175,1.54E-01
0.11775,-1.27E-01
0.118,-7.27E-01
0.11825,-2.97E-01
0.1185,6.15E-01
0.11875,2.66E-01
0.119,-3.43E-01
0.11925,-2.66E-01
0.1195,-6.95E-01
0.11975,-6.05E-01
0.12,-2.09E-01
0.12025,1.91E-01
0.1205,8.15E-01
0.12075,7.57E-01
0.121,-1.15E-01
0.12125,-2.76E-02
0.1215,3.08E-01
0.12175,2.13E-02
0.122,-5.71E-01
0.12225,5.93E-01
0.1225,3.62E-01
0.12275,5.56E-01
0.123,-2.80E-01
0.12325,-1.52E-01
0.1235,-3.24E-01
0.12375,-3.18E-01
0.124,-3.52E-02
0.12425,-1.00E-01
0.1245,5.55E-01
0.12475,-2.75E-02
0.125,-7.01E-01
0.12525,-7.04E-01
0.1255,5.77E-01
0.12575,-4.37E-01
0.126,4.84E-01
0.12625,3.06E-01
0.1265,2.05E-01
0.12675,5.69E-01
0.127,1.33E-01
0.12725,8.51E-01
0.1275,9.89E-01
0.12775,3.84E-01
0.128,3.79E-01
0.12825,-2.90E-01
0.1285,1.65E-01
0.12875,-5.05E-01
0.129,-3.74E-01
0.12925,2.64E-01
0.1295,5.64E-01
0.12975,1.78E-01
0.13,5.44E-01
0.13025,-5.26E-01
0.1305,7.94E-01
0.13075,-7.03E-01
0.131,1.64E-01
0.13125,7.68E-01
0.1315,2.33E-01
0.13175,-6.05E-01
0.132,-6.19E-01
0.13225,-7.08E-02
0.1325,-5.49E-01
0.13275,-4.16E-01
0.133,-7.56E-01
0.13325,-6.23E-01
0.1335,-1.08E+00
0.13375,7.52E-02
0.134,7.23E-01
0.13425,2.29E-01
0.1345,-1.08E+00
0.13475,-3.98E-01
0.135,6.53E-01
0.13525,2.73E-01
0.1355,1.60E-01
0.13575,8.63E-01
0.136,6.00E-01
0.13625,-6.55E-01
0.1365,-7.30E-01
0.13675,-3.21E-01
0.137,5.34E-01
0.13725,2.72E-01
0.1375,-9.15E-01
0.13775,2.57E-01
0.138,8.80E-01
0.13825,-7.39E-01
0.1385,1.02E-01
0.13875,-3.80E-01
0.139,1.45E-01
0.13925,1.88E-02
0.1395,-1.84E-01
0.13975,4.81E-02
0.14,5.40E-01
0.14025,-3.09E-01
0.1405,-4.01E-01
0.14075,9.22E-01
0.141,1.20E-02
0.14125,1.23E-01
0.1415,1.06E-01
0.14175,4.90E-02
0.142,8.54E-02
0.14225,4.80E-02
0.1425,5.72E-02
0.14275,8.07E-02
0.143,6.24E-02
0.14325,2.63E-02
0.1435,4.99E-02
0.14375,1.09E-01
0.144,1.17E-01
0.14425,1.01E-01
0.1445,1.19E-01
0.14475,1.10E-01
0.145,5.81E-02
0.14525,7.25E-02
0.1455,6.69E-02
0.14575,6.65E-02
0.146,1.39E-01
0.14625,5.19E-02
0.1465,1.28E-01
0.14675,7.21E-02
0.147,8.53E-02
0.14725,1.01E-01
0.1475,5.47E-02
0.14775,1.03E-01
0.148,9.63E-02
0.14825,1.15E-01
0.1485,9.69E-02
0.14875,5.63E-02
0.149,9.48E-02
0.14925,7.31E-02
0.1495,3.75E-02
0.14975,7.26E-02
0.15,1.42E-01
0.15025,1.31E-01
0.1505,9.01E-02
0.15075,5.75E-02
0.151,6.28E-02
0.15125,8.98E-02
0.1515,8.83E-02
0.15175,1.05E-01
0.152,8.28E-02
0.15225,1.04E-01
0.1525,5.20E-02
0.15275,6.26E-02
0.153,1.10E-01
0.15325,9.17E-02
0.1535,4.70E-02
0.15375,1.19E-01
0.154,4.30E-02
0.15425,8.07E-02
0.1545,5.34E-02
0.15475,6.69E-02
0.155,9.18E-02
0.15525,1.01E-01
0.1555,9.74E-02
0.15575,5.24E-02
0.156,1.10E-01
0.15625,3.03E-02
0.1565,4.60E-02
0.15675,7.45E-02
0.157,5.98E-02
0.15725,1.04E-01
0.1575,1.06E-01
0.15775,3.57E-02
0.158,9.39E-02
0.15825,8.80E-02
0.1585,7.49E-02
0.15875,1.15E-01
0.159,5.91E-02
0.15925,1.22E-01
0.1595,1.27E-01
0.15975,5.39E-02
0.16,1.32E-01
0.16025,4.33E-02
0.1605,5.29E-02
0.16075,8.15E-02
0.161,1.04E-01
0.16125,1.24E-01
0.1615,1.17E-01
0.16175,6.62E-02
0.162,8.49E-02
0.16225,1.02E-01
0.1625,2.57E-02
0.16275,3.83E-02
0.163,1.06E-01
0.16325,4.15E-02
0.1635,1.01E-01
0.16375,5.89E-02
0.164,9.52E-02
0.16425,7.27E-02
0.1645,1.15E-01
0.16475,3.75E-02
0.165,3.19E-02
0.16525,8.58E-02
0.1655,1.07E-01
0.16575,8.18E-02
0.166,7.81E-02
0.16625,6.17E-02
0.1665,1.09E-01
0.16675,6.61E-02
0.167,1.11E-01
0.16725,3.20E-02
0.1675,7.65E-02
0.16775,6.86E-02
0.168,9.67E-02
0.16825,8.51E-02
0.1685,9.45E-02
0.16875,4.68E-02
0.169,5.39E-02
0.16925,1.03E-01
0.1695,4.55E-02
0.16975,9.72E-02
0.17,5.32E-02
0.17025,1.13E-01
0.1705,4.29E-02
0.17075,9.71E-02
0.171,9.72E-02
0.17125,6.56E-02
0.1715,5.94E-02
0.17175,7.15E-02
0.172,6.11E-02
0.17225,5.24E-02
0.1725,1.01E-01
0.17275,7.98E-02
0.173,7.14E-02
0.17325,1.23E-01
0.1735,8.99E-02
0.17375,1.04E-01
0.174,5.35E-02
0.17425,2.62E-02
0.1745,4.58E-02
0.17475,3.18E-02
0.175,6.95E-02
0.17525,8.61E-02
0.1755,8.06E-02
0.17575,1.28E-01
0.176,1.30E-01
0.17625,1.09E-01
0.1765,8.66E-02
0.17675,5.54E-02
0.177,7.05E-02
0.17725,5.41E-02
0.1775,1.03E-01
0.17775,1.54E-02
0.178,1.06E-01
0.17825,8.77E-02
0.1785,4.18E-02
0.17875,4.56E-02
0.179,8.96E-02
0.17925,1.56E-01
0.1795,3.96E-02
0.17975,3.98E-02
0.18,5.27E-02
0.18025,3.48E-02
0.1805,1.11E-01
0.18075,5.45E-02
0.181,6.08E-02
0.18125,7.01E-02
0.1815,6.97E-02
0.18175,7.78E-02
0.182,5.78E-02
0.18225,9.79E-02
0.1825,5.97E-02
0.18275,9.43E-02
0.183,3.16E-02
0.18325,8.77E-02
0.1835,1.15E-01
0.18375,1.20E-01
0.184,9.89E-02
0.18425,9.48E-02
0.1845,4.25E-02
0.18475,1.15E-01
0.185,1.10E-01
0.18525,8.30E-02
0.1855,7.00E-02
0.18575,8.73E-02
0.186,6.62E-02
0.18625,1.06E-01
0.1865,1.25E-01
0.18675,3.31E-02
0.187,1.07E-01
0.18725,8.19E-02
0.1875,1.03E-01
0.18775,5.73E-02
0.188,8.52E-02
0.18825,5.08E-02
0.1885,4.42E-02
0.18875,7.28E-02
0.189,3.33E-02
0.18925,2.63E-02
0.1895,1.12E-01
0.18975,7.56E-02
0.19,1.42E-01
0.19025,1.28E-01
0.1905,8.89E-02
0.19075,6.49E-02
0.191,5.41E-02
0.19125,4.54E-02
0.1915,1.08E-01
0.19175,8.29E-02
0.192,9.88E-02
0.19225,4.38E-02
0.1925,9.72E-02
0.19275,5.66E-02
0.193,1.00E-01
0.19325,5.30E-02
0.1935,9.50E-02
0.19375,3.82E-02
0.194,8.60E-02
0.19425,9.26E-02
0.1945,1.11E-01
0.19475,8.31E-02
0.195,9.76E-02
0.19525,9.83E-02
0.1955,1.14E-01
0.19575,5.94E-02
0.196,7.72E-02
0.19625,7.48E-02
0.1965,5.00E-02
0.19675,5.11E-02
0.197,3.84E-02
0.19725,6.85E-02
0.1975,6.00E-02
0.19775,5.40E-02
0.198,1.15E-01
0.19825,9.04E-02
0.1985,8.91E-02
0.19875,9.93E-02
0.199,6.19E-02
0.19925,1.09E-01
0.1995,7.30E-02
0.19975,4.46E-02
0.2,3.81E-02
0.20025,8.82E-02
0.2005,5.68E-02
0.20075,2.86E-02
0.201,1.09E-01
0.20125,3.59E-02
0.2015,7.08E-02
0.20175,1.39E-01
0.202,4.40E-02
0.20225,8.24E-02
0.2025,5.45E-02
0.20275,7.58E-02
0.203,4.85E-02
0.20325,1.00E-01
0.2035,4.82E-02
0.20375,8.55E-02
0.204,6.84E-02
0.20425,2.57E-02
0.2045,1.16E-01
0.20475,5.90E-02
0.205,1.02E-01
0.20525,4.72E-02
0.2055,6.95E-02
0.20575,6.89E-02
0.206,6.08E-02
0.20625,9.53E-02
0.2065,5.24E-02
0.20675,1.22E-01
0.207,1.19E-01
0.20725,9.98E-02
0.2075,1.19E-01
0.20775,1.20E-01
0.208,1.15E-01
0.20825,4.42E-02
0.2085,9.44E-02
0.20875,8.46E-02
0.209,1.06E-01
0.20925,8.08E-02
0.2095,1.08E-01
0.20975,1.00E-01
0.21,9.59E-02
0.21025,1.16E-01
0.2105,1.23E-01
0.21075,4.28E-02
0.211,1.08E-01
0.21125,1.07E-01
0.2115,6.08E-02
0.21175,7.43E-02
0.212,1.02E-01
0.21225,5.09E-02
0.2125,9.68E-02
0.21275,7.95E-02
0.213,4.16E-02
0.21325,3.22E-02
0.2135,7.94E-02
0.21375,4.52E-02
0.214,9.96E-02
0.21425,4.58E-02
0.2145,1.04E-01
0.21475,5.41E-02
0.215,5.22E-02
0.21525,4.07E-02
0.2155,8.65E-02
0.21575,9.85E-02
0.216,1.21E-01
0.21625,1.22E-01
0.2165,1.12E-01
0.21675,6.61E-02
0.217,5.40E-02
0.21725,1.08E-01
0.2175,5.27E-02
0.21775,-2.02E-01
0.218,5.47E-01
0.21825,5.10E-01
0.2185,1.22E+00
0.21875,8.60E-01
0.219,-8.49E-01
0.21925,1.05E+00
0.2195,9.65E-01
0.21975,-1.00E-01
0.22,7.16E-02
0.22025,-7.00E-01
0.2205,-2.14E-01
0.22075,-7.90E-01
0.221,8.54E-01
0.22125,9.66E-01
0.2215,4.67E-02
0.22175,6.46E-01
0.222,-2.85E-01
0.22225,-3.38E-01
0.2225,5.64E-01
0.22275,-2.02E-01
0.223,-6.36E-01
0.22325,1.45E-01
0.2235,-2.63E-01
0.22375,-2.75E-02
0.224,-4.50E-01
0.22425,1.03E+00
0.2245,-4.88E-01
0.22475,-5.89E-01
0.225,3.92E-02
0.22525,3.54E-01
0.2255,1.09E+00
0.22575,3.65E-01
0.226,-3.63E-01
0.22625,-8.55E-01
0.2265,8.38E-01
0.22675,6.75E-01
0.227,-4.00E-01
0.22725,7.56E-01
0.2275,5.10E-01
0.22775,-4.07E-01
0.228,2.06E-01
0.22825,-1.30E-01
0.2285,-4.37E-01
0.22875,9.47E-01
0.229,3.39E-01
0.22925,2.39E-01
0.2295,8.43E-01
0.22975,-7.85E-01
0.23,1.69E-01
0.23025,4.67E-01
0.2305,-5.33E-01
0.23075,-4.64E-01
0.231,2.56E-01
0.23125,-1.23E-01
0.2315,1.65E-01
0.23175,1.10E-01
0.232,1.65E-01
0.23225,-1.71E-01
0.2325,8.51E-01
0.23275,3.13E-01
0.233,9.59E-01
0.23325,5.64E-01
0.2335,-1.99E-01
0.23375,4.29E-01
0.234,-1.81E-01
0.23425,-2.15E-01
0.2345,5.76E-01
0.23475,-6.88E-01
0.235,-3.40E-01
0.23525,-8.18E-01
0.2355,1.03E+00
0.23575,4.46E-01
0.236,1.85E-01
0.23625,-9.74E-01
0.2365,4.10E-01
0.23675,-6.76E-01
0.237,-4.01E-01
0.23725,5.56E-01
0.2375,-1.92E-01
0.23775,1.75E-01
0.238,1.20E-01
0.23825,-4.13E-01
0.2385,7.19E-01
0.23875,6.21E-01
0.239,-1.55E-01
0.23925,-2.03E-01
0.2395,-6.73E-01
0.23975,5.05E-01
0.24,9.71E-02
0.24025,1.45E-01
0.2405,8.18E-01
0.24075,1.62E-01
0.241,3.36E-01
0.24125,1.03E+00
0.2415,-5.79E-02
0.24175,3.10E-01
0.242,2.31E-02
0.24225,5.94E-01
0.2425,3.51E-01
0.24275,-4.94E-01
0.243,-2.14E-01
0.24325,3.02E-01
0.2435,-9.17E-01
0.24375,6.17E-01
0.244,-6.16E-02
0.24425,-3.86E-01
0.2445,-4.16E-01
0.24475,-1.93E-01
0.245,2.21E-01
0.24525,7.16E-01
0.2455,3.28E-01
0.24575,4.85E-01
0.246,-7.17E-01
0.24625,-4.55E-01
0.2465,5.82E-01
0.24675,5.86E-01
0.247,4.95E-01
0.24725,1.75E-01
0.2475,1.83E-01
0.24775,9.51E-01
0.248,6.96E-01
0.24825,6.72E-01
0.2485,6.96E-01
0.24875,-3.28E-01
0.249,-5.49E-02
0.24925,-3.08E-01
0.2495,3.40E-01
0.24975,4.63E-01
0.25,-1.04E-01
0.25025,1.68E-01
0.2505,7.37E-01
0.25075,-7.81E-01
0.251,8.56E-01
0.25125,-6.96E-01
0.2515,-3.50E-01
0.25175,1.66E-01
0.252,-4.93E-01
0.25225,-2.69E-01
0.2525,-1.97E-01
0.25275,6.91E-01
0.253,7.48E-01
0.25325,-6.71E-01
0.2535,8.91E-01
0.25375,6.12E-01
0.254,4.16E-01
0.25425,2.94E-01
0.2545,-2.87E-01
0.25475,3.86E-01
0.255,2.25E-01
0.25525,-1.75E-01
0.2555,4.41E-01
0.25575,-2.52E-01
0.256,-8.98E-01
0.25625,-2.73E-01
0.2565,1.18E-01
0.25675,1.33E-01
0.257,-2.37E-01
0.25725,5.76E-01
0.2575,-6.85E-01
0.25775,6.12E-02
0.258,-5.71E-01
0.25825,5.49E-01
0.2585,-3.07E-01
0.25875,2.74E-01
0.259,-6.09E-01
0.25925,6.27E-01
0.2595,-4.01E-01
0.25975,3.65E-01
0.26,2.70E-01
0.26025,6.71E-01
0.2605,-5.94E-02
0.26075,9.67E-01
0.261,-6.68E-01
0.26125,3.13E-01
0.2615,4.70E-01
0.26175,2.24E-02
0.262,8.95E-02
0.26225,-7.64E-01
0.2625,2.37E-01
0.26275,3.75E-03
0.263,-2.09E-01
0.26325,-9.62E-01
0.2635,2.32E-01
0.26375,5.31E-01
0.264,-4.70E-01
0.26425,3.82E-01
0.2645,-2.81E-01
0.26475,-6.35E-01
0.265,-1.84E-01
0.26525,7.27E-01
0.2655,-6.85E-01
0.26575,-1.65E-01
0.266,4.76E-01
0.26625,-4.83E-01
0.2665,2.66E-01
0.26675,1.94E-02
0.267,-1.17E-01
0.26725,9.78E-01
0.2675,-3.57E-02
0.26775,7.77E-01
0.268,8.54E-01
0.26825,-8.14E-02
0.2685,3.80E-01
0.26875,-8.59E-02
0.269,1.07E+00
0.26925,5.90E-02
0.2695,-6.43E-01
0.26975,-5.14E-01
0.27,-3.49E-01
0.27025,-4.89E-01
0.2705,3.90E-01
0.27075,9.70E-01
0.271,1.38E-01
0.27125,-2.93E-01
0.2715,-4.95E-01
0.27175,7.40E-01
0.272,-7.95E-02
0.27225,8.56E-01
0.2725,-3.86E-01
0.27275,5.27E-01
0.273,1.23E-01
0.27325,-6.41E-01
0.2735,-2.93E-01
0.27375,2.35E-01
0.274,-4.96E-02
0.27425,5.52E-01
0.2745,-9.02E-01
0.27475,-8.18E-01
0.275,3.58E-01
0.27525,-1.02E-01
0.2755,5.81E-01
0.27575,9.63E-01
0.276,-4.49E-01
0.27625,-1.47E-01
0.2765,-3.26E-02
0.27675,-2.38E-01
0.277,-4.01E-01
0.27725,-5.58E-01
0.2775,2.92E-01
0.27775,7.71E-01
0.278,-1.45E-01
0.27825,1.39E-01
0.2785,-2.81E-02
0.27875,5.09E-01
0.279,-1.41E-02
0.27925,-5.33E-01
0.2795,3.93E-01
0.27975,-5.08E-01
0.28,-3.10E-01
0.28025,-5.45E-01
0.2805,-4.23E-01
0.28075,-7.22E-01
0.281,-5.17E-02
0.28125,2.90E-01
0.2815,1.02E+00
0.28175,3.86E-03
0.282,5.59E-02
0.28225,7.35E-02
0.2825,9.49E-02
0.28275,8.29E-02
0.283,8.88E-02
0.28325,6.15E-02
0.2835,7.86E-02
0.28375,1.25E-01
0.284,7.31E-02
0.28425,8.31E-02
0.2845,5.61E-02
0.28475,1.07E-01
0.285,1.27E-01
0.28525,1.03E-01
0.2855,3.62E-02
0.28575,1.11E-01
0.286,8.11E-02
0.28625,9.92E-02
0.2865,9.29E-02
0.28675,8.25E-02
0.287,9.43E-02
0.28725,1.18E-01
0.2875,1.07E-01
0.28775,8.63E-02
0.288,1.97E-02
0.28825,5.54E-02
0.2885,1.22E-01
0.28875,7.43E-02
0.289,1.16E-01
0.28925,1.03E-01
0.2895,3.26E-02
0.28975,1.16E-01
0.29,9.30E-02
0.29025,6.17E-02
0.2905,1.17E-01
0.29075,6.17E-02
0.291,7.15E-02
0.29125,5.12E-02
0.2915,8.65E-02
0.29175,7.49E-02
0.292,4.12E-02
0.29225,5.53E-02
0.2925,8.62E-02
0.29275,1.61E-02
0.293,1.34E-01
0.29325,8.77E-02
0.2935,5.94E-02
0.29375,4.04E-02
0.294,5.89E-02
0.29425,4.94E-02
0.2945,7.68E-02
0.29475,9.83E-02
0.295,6.97E-02
0.29525,1.17E-01
0.2955,8.53E-02
0.29575,1.01E-01
0.296,6.84E-02
0.29625,1.12E-01
0.2965,5.75E-02
0.29675,7.93E-02
0.297,2.71E-02
0.29725,7.58E-02
0.2975,1.13E-01
0.29775,5.46E-02
0.298,4.99E-02
0.29825,4.40E-02
0.2985,5.93E-02
0.29875,8.29E-02
0.299,4.13E-02
0.29925,2.17E-02
0.2995,5.36E-02
0.29975,5.04E-02
0.3,3.29E-02
0.30025,4.10E-02
0.3005,1.35E-01
0.30075,7.32E-02
0.301,1.10E-01
0.30125,1.01E-01
0.3015,1.01E-01
0.30175,9.77E-02
0.302,5.98E-02
0.30225,9.68E-02
0.3025,6.58E-02
0.30275,1.25E-01
0.303,1.16E-01
0.30325,1.39E-01
0.3035,6.39E-02
0.30375,9.60E-02
0.304,6.56E-02
0.30425,7.55E-02
0.3045,1.10E-01
0.30475,5.62E-02
0.305,6.01E-02
0.30525,5.01E-02
0.3055,1.15E-01
0.30575,5.74E-02
0.306,6.22E-02
0.30625,5.67E-02
0.3065,9.76E-02
0.30675,9.08E-02
0.307,6.40E-02
0.30725,4.02E-02
0.3075,4.48E-02
0.30775,9.31E-02
0.308,1.05E-01
0.30825,8.57E-02
0.3085,1.36E-01
0.30875,1.06E-01
0.309,8.98E-02
0.30925,9.40E-02
0.3095,1.45E-01
0.30975,7.68E-02
0.31,5.97E-02
0.31025,4.82E-02
0.3105,2.92E-02
0.31075,1.12E-01
0.311,4.90E-02
0.31125,1.17E-01
0.3115,7.49E-02
0.31175,1.16E-01
0.312,8.61E-02
0.31225,4.26E-02
0.3125,9.92E-02
0.31275,1.32E-01
0.313,4.09E-02
0.31325,1.37E-01
0.3135,1.04E-01
0.31375,7.35E-02
0.314,6.25E-02
0.31425,1.16E-01
0.3145,8.38E-02
0.31475,4.56E-02
0.315,1.16E-01
0.31525,9.74E-02
0.3155,8.52E-02
0.31575,3.47E-02
0.316,6.47E-02
0.31625,6.37E-02
0.3165,3.57E-02
0.31675,3.48E-02
0.317,1.12E-01
0.31725,7.34E-02
0.3175,1.06E-01
0.31775,1.21E-01
0.318,1.10E-01
0.31825,6.06E-02
0.3185,7.01E-02
0.31875,1.15E-01
0.319,1.10E-01
0.31925,7.15E-02
0.3195,1.17E-01
0.31975,9.01E-02
0.32,7.68E-02
0.32025,8.81E-02
0.3205,6.87E-02
0.32075,4.68E-02
0.321,7.65E-02
0.32125,3.59E-02
0.3215,1.15E-01
0.32175,8.37E-02
0.322,1.68E-02
0.32225,9.57E-02
0.3225,7.65E-02
0.32275,8.62E-02
0.323,9.77E-02
0.32325,7.69E-02
0.3235,1.34E-01
0.32375,1.03E-01
0.324,1.35E-01
0.32425,2.93E-02
0.3245,5.15E-02
0.32475,9.52E-02
0.325,8.24E-02
0.32525,6.04E-02
0.3255,1.10E-01
0.32575,6.55E-02
0.326,1.31E-01
0.32625,9.24E-02
0.3265,9.97E-02
0.32675,8.05E-02
0.327,4.76E-02
0.32725,1.18E-01
0.3275,1.01E-01
0.32775,8.65E-02
0.328,1.30E-01
0.32825,4.81E-02
0.3285,5.34E-02
0.32875,1.06E-01
0.329,9.44E-02
0.32925,1.23E-01
0.3295,1.16E-01
0.32975,1.11E-01
0.33,5.38E-02
0.33025,5.86E-02
0.3305,9.36E-02
0.33075,1.04E-01
0.331,5.87E-02
0.33125,8.87E-02
0.3315,1.05E-01
0.33175,7.34E-02
0.332,1.22E-01
0.33225,1.10E-01
0.3325,3.50E-02
0.33275,9.17E-02
0.333,2.76E-02
0.33325,7.06E-02
0.3335,8.09E-02
0.33375,7.50E-02
0.334,1.04E-01
0.33425,1.09E-01
0.3345,1.23E-01
0.33475,1.15E-01
0.335,3.91E-02
0.33525,8.63E-02
0.3355,1.01E-01
0.33575,6.73E-02
0.336,6.49E-02
0.33625,7.18E-02
0.3365,6.97E-02
0.33675,7.78E-02
0.337,4.71E-02
0.33725,5.15E-02
0.3375,1.40E-01
0.33775,1.29E-01
0.338,9.36E-02
0.33825,9.18E-02
0.3385,6.14E-02
0.33875,5.40E-02
0.339,7.84E-02
0.33925,8.83E-02
0.3395,7.23E-02
0.33975,1.25E-01
0.34,1.38E-01
0.34025,3.47E-02
0.3405,7.36E-02
0.34075,8.78E-02
0.341,5.61E-02
0.34125,4.93E-02
0.3415,8.37E-02
0.34175,9.30E-02
0.342,6.92E-02
0.34225,6.13E-02
0.3425,9.91E-02
0.34275,7.59E-02
0.343,1.26E-01
0.34325,7.58E-02
0.3435,7.97E-02
0.34375,1.05E-01
0.344,8.02E-02
0.34425,7.53E-02
0.3445,5.42E-02
0.34475,9.09E-02
0.345,4.43E-02
0.34525,1.21E-01
0.3455,5.89E-02
0.34575,3.85E-02
0.346,5.03E-02
0.34625,6.82E-02
0.3465,6.39E-02
0.34675,8.81E-02
0.347,6.51E-02
0.34725,7.42E-02
0.3475,8.80E-02
0.34775,6.62E-02
0.348,1.29E-01
0.34825,4.00E-02
0.3485,9.26E-02
0.34875,4.98E-02
0.349,8.15E-02
0.34925,1.33E-01
0.3495,5.12E-02
0.34975,8.93E-02
0.35,9.49E-02
0.35025,8.25E-02
0.3505,7.14E-02
0.35075,1.34E-01
0.351,8.12E-02
0.35125,6.96E-02
0.3515,4.91E-02
0.35175,1.20E-01
0.352,5.88E-02
0.35225,7.09E-02
0.3525,9.62E-02
0.35275,1.15E-01
0.353,6.32E-02
0.35325,6.27E-02
0.3535,8.30E-02
0.35375,1.01E-01
0.354,5.78E-02
0.35425,8.00E-02
0.3545,7.22E-02
0.35475,3.92E-02
0.355,4.53E-02
0.35525,1.07E-01
0.3555,8.51E-02
0.35575,4.77E-02
0.356,1.01E-01
0.35625,8.50E-02
0.3565,1.19E-01
0.35675,2.62E-02
0.357,8.29E-02
0.35725,1.18E-01
0.3575,6.28E-02
0.35775,1.01E-01
0.358,1.15E-01
0.35825,1.11E-01
0.3585,-3.73E-02
0.35875,-5.98E-01
0.359,5.53E-01
0.35925,-7.90E-01
0.3595,-4.94E-02
0.35975,7.17E-02
0.36,-4.20E-01
0.36025,1.14E+00
0.3605,-1.75E-01
0.36075,1.22E-02
0.361,-5.55E-01
0.36125,-1.32E-01
0.3615,-7.05E-01
0.36175,6.51E-02
0.362,7.73E-01
0.36225,3.45E-01
0.3625,6.57E-01
0.36275,-1.25E-01
0.363,3.31E-01
0.36325,9.42E-01
0.3635,5.08E-01
0.36375,-5.96E-01
0.364,-1.22E-01
0.36425,-1.54E-01
0.3645,1.44E-01
0.36475,3.38E-01
0.365,3.11E-01
0.36525,-1.95E-01
0.3655,7.41E-01
0.36575,3.10E-01
0.366,3.63E-01
0.36625,2.76E-01
0.3665,1.00E+00
0.36675,8.42E-01
0.367,2.80E-01
0.36725,-7.61E-01
0.3675,7.55E-01
0.36775,-8.86E-02
0.368,-8.69E-02
0.36825,1.29E-01
0.3685,-5.30E-01
0.36875,5.35E-01
0.369,4.98E-01
0.36925,-3.73E-01
0.3695,-9.53E-01
0.36975,7.47E-01
0.37,9.43E-02
0.37025,-3.56E-01
0.3705,6.41E-01
0.37075,6.14E-01
0.371,-2.87E-01
0.37125,-2.82E-01
0.3715,-4.27E-01
0.37175,2.57E-02
0.372,6.53E-01
0.37225,2.46E-01
0.3725,7.73E-01
0.37275,-7.32E-01
0.373,-3.07E-01
0.37325,6.00E-01
0.3735,5.08E-01
0.37375,-7.97E-01
0.374,-5.20E-01
0.37425,-5.06E-01
0.3745,-9.17E-01
0.37475,8.53E-01
0.375,-1.20E-01
0.37525,3.11E-01
0.3755,3.34E-01
0.37575,9.34E-02
0.376,2.65E-01
0.37625,1.84E-01
0.3765,-2.62E-01
0.37675,-6.30E-01
0.377,-2.00E-01
0.37725,-2.22E-01
0.3775,-5.35E-01
0.37775,6.87E-01
0.378,9.66E-01
0.37825,-6.57E-01
0.3785,1.51E-01
0.37875,-5.26E-01
0.379,6.55E-01
0.37925,2.77E-01
0.3795,-2.99E-01
0.37975,-4.82E-01
0.38,-2.54E-03
0.38025,1.85E-01
0.3805,-4.22E-02
0.38075,-1.75E-01
0.381,9.21E-01
0.38125,-7.01E-01
0.3815,-3.53E-01
0.38175,-1.49E-01
0.382,-4.47E-02
0.38225,5.34E-01
0.3825,2.17E-01
0.38275,6.40E-02
0.383,7.82E-01
0.38325,-1.66E-01
0.3835,-1.81E-01
0.38375,8.21E-01
0.384,1.94E-01
0.38425,-2.34E-01
0.3845,1.50E-02
0.38475,2.61E-01
0.385,-6.77E-01
0.38525,-9.53E-01
0.3855,-4.95E-01
0.38575,6.49E-01
0.386,8.96E-01
0.38625,-3.46E-01
0.3865,-2.68E-01
0.38675,1.73E-01
0.387,-2.91E-01
0.38725,-3.73E-01
0.3875,-2.06E-01
0.38775,2.26E-01
0.388,1.15E+00
0.38825,1.04E-01
0.3885,1.61E-01
0.38875,8.66E-01
0.389,-6.50E-01
0.38925,-2.92E-01
0.3895,-2.76E-01
0.38975,5.10E-01
0.39,2.75E-01
0.39025,1.00E-01
0.3905,1.15E-01
0.39075,6.74E-01
0.391,-3.78E-02
0.39125,9.07E-01
0.3915,8.69E-01
0.39175,5.17E-01
0.392,-2.59E-01
0.39225,9.46E-01
0.3925,6.52E-01
0.39275,7.71E-01
0.393,7.93E-01
0.39325,7.21E-01
0.3935,-7.08E-01
0.39375,-2.99E-01
0.394,-6.87E-01
0.39425,-7.36E-01
0.3945,-7.79E-01
0.39475,-4.34E-01
0.395,-2.90E-02
0.39525,-3.09E-01
0.3955,-1.88E-01
0.39575,7.06E-01
0.396,-2.03E-01
0.39625,6.88E-01
0.3965,-7.29E-02
0.39675,1.09E-01
0.397,-8.12E-01
0.39725,1.06E-01
0.3975,-7.77E-01
0.39775,4.67E-01
0.398,-4.24E-01
0.39825,1.02E+00
0.3985,4.43E-01
0.39875,-1.33E-01
0.399,-1.04E+00
0.39925,9.92E-01
0.3995,-4.10E-01
0.39975,-8.38E-01
0.4,-6.66E-02
0.40025,-6.34E-02
0.4005,4.27E-01
0.40075,1.20E-01
0.401,5.39E-01
0.40125,6.71E-01
0.4015,1.32E-01
0.40175,-4.41E-01
0.402,4.06E-02
0.40225,-1.09E-01
0.4025,-1.02E-01
0.40275,3.45E-01
0.403,2.39E-01
0.40325,7.90E-01
0.4035,-1.13E+00
0.40375,-6.01E-01
0.404,5.38E-01
0.40425,-8.49E-01
0.4045,3.10E-01
0.40475,5.93E-01
0.405,-7.72E-01
0.40525,5.75E-01
0.4055,1.06E+00
0.40575,9.89E-01
0.406,-5.29E-01
0.40625,5.43E-01
0.4065,-3.40E-02
0.40675,3.96E-01
0.407,9.29E-01
0.40725,-7.03E-01
0.4075,1.04E+00
0.40775,4.03E-01
0.408,6.19E-03
0.40825,-6.92E-01
0.4085,4.03E-01
0.40875,-2.74E-01
0.409,1.31E+00
0.40925,-2.05E-01
0.4095,-5.94E-01
0.40975,8.94E-01
0.41,2.03E-01
0.41025,1.43E-01
0.4105,3.91E-01
0.41075,1.54E-01
0.411,9.25E-01
0.41125,-5.11E-01
0.4115,-2.58E-01
0.41175,-2.54E-01
0.412,1.32E+00
0.41225,-3.38E-01
0.4125,8.44E-01
0.41275,-4.22E-01
0.413,-5.26E-01
0.41325,1.11E-01
0.4135,-6.86E-01
0.41375,4.39E-01
0.414,5.52E-01
0.41425,9.82E-01
0.4145,3.83E-01
0.41475,2.04E-02
0.415,-7.06E-01
0.41525,-1.31E-01
0.4155,-2.45E-01
0.41575,-5.70E-01
0.416,-6.35E-02
0.41625,-8.00E-01
0.4165,8.21E-01
0.41675,-3.44E-01
0.417,-1.73E-02
0.41725,3.95E-01
0.4175,7.81E-01
0.41775,9.03E-01
0.418,-1.26E-01
0.41825,3.41E-01
0.4185,2.63E-01
0.41875,2.96E-01
0.419,-6.51E-01
0.41925,7.49E-01
0.4195,4.94E-02
0.41975,9.01E-01
0.42,-5.05E-01
0.42025,5.95E-01
0.4205,7.93E-01
0.42075,7.63E-01
0.421,6.84E-01
0.42125,-9.32E-02
0.4215,1.53E-01
0.42175,4.53E-01
0.422,3.67E-01
0.42225,-1.18E-01
0.4225,5.24E-01
0.42275,9.83E-02
0.423,8.62E-02
0.42325,6.38E-02
0.4235,7.92E-02
0.42375,8.29E-02
0.424,1.11E-01
0.42425,7.92E-02
0.4245,9.11E-02
0.42475,2.91E-02
0.425,8.97E-03
0.42525,6.60E-02
0.4255,6.87E-02
0.42575,2.97E-02
0.426,9.54E-02
0.42625,6.93E-02
0.4265,1.22E-01
0.42675,8.71E-02
0.427,1.02E-01
0.42725,7.24E-02
0.4275,7.17E-02
0.42775,7.07E-02
0.428,1.27E-01
0.42825,7.29E-02
0.4285,1.01E-01
0.42875,9.81E-02
0.429,1.18E-01
0.42925,5.73E-02
0.4295,1.29E-01
0.42975,7.89E-02
0.43,1.23E-01
0.43025,1.45E-01
0.4305,8.21E-02
0.43075,1.11E-01
0.431,6.69E-02
0.43125,1.00E-01
0.4315,1.05E-01
0.43175,8.52E-02
0.432,8.46E-02
0.43225,1.95E-02
0.4325,6.55E-02
0.43275,9.01E-02
0.433,1.01E-01
0.43325,5.40E-02
0.4335,7.95E-02
0.43375,5.13E-02
0.434,6.78E-02
0.43425,4.81E-02
0.4345,1.12E-01
0.43475,5.28E-02
0.435,9.38E-03
0.43525,4.69E-02
0.4355,9.03E-02
0.43575,1.31E-01
0.436,3.34E-02
0.43625,4.70E-02
0.4365,1.08E-01
0.43675,7.95E-02
0.437,1.14E-01
0.43725,3.06E-02
0.4375,4.52E-02
0.43775,5.55E-02
0.438,4.54E-02
0.43825,1.19E-01
0.4385,5.14E-02
0.43875,6.52E-02
0.439,3.50E-02
0.43925,3.53E-02
0.4395,1.16E-01
0.43975,3.90E-02
0.44,1.07E-01
0.44025,5.84E-02
0.4405,6.97E-02
0.44075,1.12E-01
0.441,6.91E-02
0.44125,7.67E-02
0.4415,9.90E-02
0.44175,7.36E-02
0.442,6.41E-02
0.44225,5.62E-02
0.4425,6.98E-02
0.44275,7.77E-02
0.443,7.93E-02
0.44325,1.35E-01
0.4435,1.29E-01
0.44375,9.54E-02
0.444,6.74E-02
0.44425,7.60E-02
0.4445,5.41E-02
0.44475,1.21E-01
0.445,3.01E-02
0.44525,7.93E-02
0.4455,3.77E-02
0.44575,7.26E-02
0.446,5.07E-02
0.44625,1.15E-01
0.4465,4.02E-02
0.44675,1.04E-01
0.447,8.45E-02
0.44725,8.26E-02
0.4475,7.00E-02
0.44775,3.94E-02
0.448,1.12E-01
0.44825,3.56E-02
0.4485,1.12E-01
0.44875,1.03E-01
0.449,9.18E-02
0.44925,8.30E-02
0.4495,1.07E-01
0.44975,9.93E-02
0.45,1.08E-01
0.45025,8.31E-02
0.4505,1.07E-01
0.45075,5.07E-02
0.451,5.79E-02
0.45125,4.72E-02
0.4515,9.79E-02
0.45175,5.00E-02
0.452,5.89E-02
0.45225,7.78E-02
0.4525,8.49E-02
0.45275,1.10E-01
0.453,9.19E-02
0.45325,4.50E-02
0.4535,8.22E-02
0.45375,4.37E-02
0.454,8.66E-02
0.45425,6.08E-02
0.4545,1.03E-01
0.45475,8.30E-02
0.455,8.37E-02
0.45525,1.05E-01
0.4555,7.88E-02
0.45575,7.96E-02
0.456,8.62E-02
0.45625,1.34E-01
0.4565,7.38E-02
0.45675,5.20E-02
0.457,6.21E-02
0.45725,5.26E-02
0.4575,1.08E-01
0.45775,1.17E-01
0.458,6.62E-02
0.45825,9.35E-02
0.4585,8.33E-02
0.45875,4.77E-02
0.459,9.82E-02
0.45925,9.71E-02
0.4595,2.64E-02
0.45975,2.85E-02
0.46,2.70E-02
0.46025,8.84E-02
0.4605,5.95E-02
0.46075,8.07E-02
0.461,8.20E-02
0.46125,6.43E-02
0.4615,4.09E-02
0.46175,8.13E-02
0.462,5.83E-02
0.46225,5.85E-02
0.4625,7.48E-02
0.46275,7.88E-02
0.463,1.05E-01
0.46325,1.03E-01
0.4635,1.13E-01
0.46375,6.55E-02
0.464,1.33E-01
0.46425,2.00E-02
0.4645,5.20E-02
0.46475,3.54E-02
0.465,1.17E-01
0.46525,8.84E-02
0.4655,2.98E-02
0.46575,9.57E-02
0.466,4.62E-02
0.46625,5.59E-02
0.4665,3.34E-02
0.46675,6.78E-02
0.467,1.07E-01
0.46725,1.25E-01
0.4675,6.22E-02
0.46775,6.25E-02
0.468,6.48E-02
0.46825,6.82E-02
0.4685,1.11E-01
0.46875,4.71E-02
0.469,6.17E-02
0.46925,1.03E-01
0.4695,1.14E-01
0.46975,7.47E-02
0.47,5.43E-02
0.47025,1.18E-01
0.4705,1.20E-01
0.47075,4.99E-02
0.471,5.39E-02
0.47125,5.31E-02
0.4715,1.06E-01
0.47175,2.69E-02
0.472,1.16E-01
0.47225,3.77E-02
0.4725,3.79E-02
0.47275,6.14E-02
0.473,4.85E-02
0.47325,1.04E-01
0.4735,7.63E-02
0.47375,9.99E-02
0.474,6.31E-02
0.47425,5.36E-02
0.4745,6.98E-02
0.47475,1.24E-01
0.475,9.37E-02
0.47525,3.93E-02
0.4755,6.45E-02
0.47575,5.30E-02
0.476,5.69E-02
0.47625,7.03E-02
0.4765,5.05E-02
0.47675,7.78E-02
0.477,5.30E-02
0.47725,4.32E-02
0.4775,5.44E-02
0.47775,1.26E-01
0.478,7.23E-02
0.47825,7.16E-02
0.4785,1.11E-01
0.47875,1.19E-01
0.479,1.13E-01
0.47925,5.50E-02
0.4795,8.27E-02
0.47975,6.24E-02
0.48,3.78E-02
0.48025,6.22E-02
0.4805,2.73E-02
0.48075,4.83E-02
0.481,5.73E-02
0.48125,7.56E-02
0.4815,6.25E-02
0.48175,5.06E-02
0.482,1.20E-01
0.48225,9.58E-02
0.4825,1.23E-01
0.48275,1.03E-01
0.483,9.35E-02
0.48325,5.47E-02
0.4835,8.04E-02
0.48375,8.13E-02
0.484,1.10E-01
0.48425,8.73E-02
0.4845,4.96E-02
0.48475,6.52E-02
0.485,8.62E-02
0.48525,7.34E-02
0.4855,8.31E-02
0.48575,8.08E-02
0.486,7.14E-02
0.48625,1.03E-01
0.4865,7.11E-02
0.48675,6.03E-02
0.487,7.60E-02
0.48725,1.48E-01
0.4875,1.47E-01
0.48775,8.80E-02
0.488,8.00E-02
0.48825,1.04E-01
0.4885,5.73E-02
0.48875,1.32E-01
0.489,9.35E-02
0.48925,4.85E-02
0.4895,4.03E-02
0.48975,6.83E-02
0.49,6.36E-02
0.49025,6.54E-02
0.4905,3.13E-02
0.49075,8.81E-02
0.491,9.28E-02
0.49125,4.16E-02
0.4915,8.38E-02
0.49175,5.20E-02
0.492,6.74E-02
0.49225,5.30E-02
0.4925,6.95E-02
0.49275,7.42E-02
0.493,9.25E-02
0.49325,9.24E-02
0.4935,1.05E-01
0.49375,7.72E-02
0.494,1.13E-01
0.49425,9.80E-02
0.4945,1.30E-01
0.49475,6.14E-02
0.495,6.15E-02
0.49525,5.00E-02
0.4955,8.39E-02
0.49575,9.35E-02
0.496,1.92E-02
0.49625,5.66E-02
0.4965,3.65E-02
0.49675,4.18E-02
0.497,5.43E-02
0.49725,7.54E-02
0.4975,7.84E-02
0.49775,1.04E-01
0.498,3.07E-02
0.49825,1.17E-01
0.4985,8.09E-02
0.49875,1.07E-02
0.499,6.25E-02
0.49925,9.13E-02
0.4995,3.54E-01
0.49975,-8.94E-01
0.5,-2.47E-01
0.50025,-2.04E-01
0.5005,3.12E-01
0.50075,1.13E-01
0.501,7.61E-01
0.50125,-5.58E-01
0.5015,-2.61E-01
0.50175,-7.60E-01
0.502,-7.87E-01
0.50225,-7.33E-02
0.5025,-5.21E-01
0.50275,2.54E-01
0.503,-1.01E+00
0.50325,-2.53E-02
0.5035,-9.97E-01
0.50375,5.99E-01
0.504,-1.52E-01
0.50425,-9.74E-01
0.5045,6.40E-01
0.50475,4.15E-01
0.505,-4.32E-01
0.50525,7.59E-01
0.5055,-4.23E-01
0.50575,1.62E-01
0.506,-2.83E-01
0.50625,4.05E-01
0.5065,7.64E-02
0.50675,-3.20E-02
0.507,-3.40E-01
0.50725,5.29E-01
0.5075,1.09E+00
0.50775,9.44E-01
0.508,5.65E-01
0.50825,-4.14E-01
0.5085,-2.02E-01
0.50875,6.15E-01
0.509,1.93E-02
0.50925,8.63E-01
0.5095,-3.36E-01
0.50975,-1.35E-01
0.51,-6.49E-01
0.51025,-4.43E-01
0.5105,-5.78E-01
0.51075,5.52E-01
0.511,-4.40E-01
0.51125,-3.20E-01
0.5115,3.32E-01
0.51175,-1.09E-01
0.512,-6.70E-01
0.51225,-1.55E-01
0.5125,7.96E-01
0.51275,-5.30E-01
0.513,-5.05E-01
0.51325,4.63E-01
0.5135,-7.37E-01
0.51375,-1.62E-01
0.514,-7.38E-02
0.51425,-3.94E-01
0.5145,8.15E-01
0.51475,2.20E-02
0.515,-4.74E-01
0.51525,3.11E-01
0.5155,-6.95E-01
0.51575,-5.22E-01
0.516,4.91E-02
0.51625,-5.94E-01
0.5165,5.06E-01
0.51675,3.37E-01
0.517,4.31E-01
0.51725,-5.08E-01
0.5175,-3.85E-01
0.51775,5.81E-01
0.518,-2.69E-01
0.51825,3.86E-01
0.5185,-4.11E-02
0.51875,-4.77E-01
0.519,-2.90E-01
0.51925,5.94E-01
0.5195,3.61E-01
0.51975,4.70E-01
0.52,3.46E-01
0.52025,-2.93E-01
0.5205,3.36E-01
0.52075,5.95E-01
0.521,4.36E-01
0.52125,-6.07E-01
0.5215,-5.52E-01
0.52175,-2.31E-01
0.522,-8.86E-01
0.52225,5.31E-01
0.5225,-3.93E-02
0.52275,-3.01E-01
0.523,-3.25E-01
0.52325,6.86E-01
0.5235,-5.59E-01
0.52375,-8.53E-01
0.524,-4.17E-01
0.52425,-2.39E-01
0.5245,6.16E-01
0.52475,-1.83E-01
0.525,6.08E-01
0.52525,6.68E-01
0.5255,-4.97E-01
0.52575,1.43E-01
0.526,3.32E-01
0.52625,3.52E-01
0.5265,2.89E-01
0.52675,2.97E-01
0.527,-5.25E-02
0.52725,6.78E-02
0.5275,5.26E-02
0.52775,5.64E-01
0.528,-3.60E-01
0.52825,6.17E-02
0.5285,3.07E-01
0.52875,-5.19E-01
0.529,-5.07E-01
0.52925,7.53E-01
0.5295,3.24E-01
0.52975,1.00E+00
0.53,-6.25E-01
0.53025,5.61E-01
0.5305,-9.90E-01
0.53075,6.62E-01
0.531,-1.65E-01
0.53125,4.30E-01
0.5315,-6.87E-01
0.53175,3.03E-02
0.532,-7.77E-01
0.53225,1.05E+00
0.5325,-5.59E-01
0.53275,-6.93E-01
0.533,8.11E-01
0.53325,2.99E-01
0.5335,-6.09E-01
0.53375,9.53E-02
0.534,-7.82E-01
0.53425,-5.89E-01
0.5345,6.06E-01
0.53475,-6.45E-01
0.535,-7.23E-01
0.53525,-5.79E-01
0.5355,3.30E-01
0.53575,7.45E-02
0.536,1.06E+00
0.53625,3.79E-01
0.5365,4.36E-01
0.53675,-2.53E-01
0.537,-2.30E-01
0.53725,2.21E-01
0.5375,1.72E-01
0.53775,1.66E-01
0.538,-7.04E-01
0.53825,1.16E+00
0.5385,4.72E-01
0.53875,5.58E-01
0.539,2.41E-01
0.53925,-5.11E-01
0.5395,5.09E-01
0.53975,4.04E-02
0.54,8.82E-01
0.54025,-4.94E-01
0.5405,6.36E-01
0.54075,1.08E-01
0.541,5.72E-01
0.54125,-3.63E-01
0.5415,5.47E-01
0.54175,-4.06E-01
0.542,-9.13E-01
0.54225,-5.31E-01
0.5425,-4.42E-01
0.54275,-1.38E-01
0.543,-4.11E-01
0.54325,5.68E-02
0.5435,2.67E-01
0.54375,-8.39E-01
0.544,2.01E-01
0.54425,1.30E-01
0.5445,2.32E-01
0.54475,-7.70E-01
0.545,9.04E-01
0.54525,-2.68E-02
0.5455,9.28E-01
0.54575,-6.84E-01
0.546,-6.15E-01
0.54625,-3.22E-01
0.5465,6.44E-01
0.54675,7.68E-01
0.547,-2.65E-02
0.54725,9.33E-01
0.5475,3.75E-01
0.54775,-2.47E-01
0.548,6.20E-01
0.54825,-3.29E-01
0.5485,-7.17E-01
0.54875,4.08E-01
0.549,3.27E-01
0.54925,-1.97E-01
0.5495,-2.16E-01
0.54975,1.30E-01
0.55,5.85E-01
0.55025,-9.09E-02
0.5505,-2.17E-01
0.55075,-3.76E-01
0.551,-7.97E-01
0.55125,-5.09E-01
0.5515,-1.63E-01
0.55175,-1.55E-01
0.552,-4.67E-01
0.55225,5.18E-01
0.5525,8.72E-01
0.55275,1.58E-01
0.553,3.37E-01
0.55325,-2.22E-01
0.5535,1.94E-01
0.55375,-6.89E-01
0.554,-6.84E-01
0.55425,5.48E-01
0.5545,-3.26E-01
0.55475,1.82E-01
0.555,-1.85E-01
0.55525,-6.87E-01
0.5555,-1.13E-01
0.55575,7.09E-01
0.556,8.55E-01
0.55625,5.74E-01
0.5565,4.77E-01
0.55675,2.29E-01
0.557,8.47E-01
0.55725,5.21E-02
0.5575,-7.30E-01
0.55775,1.39E+00
0.558,-9.71E-02
0.55825,5.91E-02
0.5585,-9.07E-01
0.55875,-5.86E-01
0.559,-4.86E-01
0.55925,-5.75E-01
0.5595,1.01E+00
0.55975,-1.01E+00
0.56,-4.70E-01
0.56025,8.58E-02
0.5605,5.27E-01
0.56075,2.93E-01
0.561,-6.41E-01
0.56125,2.47E-01
0.5615,-3.06E-01
0.56175,-1.73E-01
0.562,6.95E-01
0.56225,4.95E-01
0.5625,-2.63E-01
0.56275,4.35E-01
0.563,-1.86E-01
0.56325,-3.66E-01
0.5635,1.19E-01
0.56375,8.76E-02
0.564,7.94E-02
0.56425,9.97E-02
0.5645,7.22E-02
0.56475,3.92E-02
0.565,6.54E-02
0.56525,6.51E-02
0.5655,7.04E-02
0.56575,8.24E-02
0.566,8.66E-02
0.56625,1.30E-01
0.5665,1.48E-01
0.56675,7.92E-02
0.567,9.43E-02
0.56725,1.15E-01
0.5675,6.73E-02
0.56775,1.14E-01
0.568,1.04E-01
0.56825,7.28E-02
0.5685,5.72E-02
0.56875,8.99E-02
0.569,3.58E-02
0.56925,8.47E-02
0.5695,7.98E-02
0.56975,1.22E-01
0.57,8.04E-02
0.57025,1.13E-01
0.5705,6.15E-02
0.57075,1.20E-01
0.571,3.64E-02
0.57125,7.10E-02
0.5715,8.39E-02
0.57175,6.21E-02
0.572,5.18E-02
0.57225,5.64E-02
0.5725,6.37E-02
0.57275,6.18E-02
0.573,4.12E-02
0.57325,8.33E-02
0.5735,8.57E-02
0.57375,4.66E-02
0.574,1.00E-01
0.57425,7.11E-02
0.5745,7.69E-02
0.57475,6.63E-02
0.575,8.02E-02
0.57525,1.23E-01
0.5755,5.51E-02
0.57575,9.23E-02
0.576,1.06E-01
0.57625,8.49E-02
0.5765,7.74E-02
0.57675,4.64E-02
0.577,5.40E-02
0.57725,3.62E-02
0.5775,8.07E-02
0.57775,7.65E-02
0.578,6.70E-02
0.57825,7.61E-02
0.5785,1.17E-01
0.57875,1.12E-01
0.579,4.32E-02
0.57925,1.02E-01
0.5795,8.95E-02
0.57975,4.12E-02
0.58,1.16E-01
0.58025,6.46E-02
0.5805,5.14E-02
0.58075,7.26E-02
0.581,1.07E-01
0.58125,8.32E-02
0.5815,4.35E-02
0.58175,5.83E-02
0.582,9.12E-02
0.58225,5.17E-02
0.5825,9.81E-02
0.58275,3.01E-02
0.583,4.61E-02
0.58325,8.39E-02
0.5835,7.75E-02
0.58375,1.30E-01
0.584,7.08E-02
0.58425,9.20E-02
0.5845,1.07E-01
0.58475,9.14E-02
0.585,9.32E-02
0.58525,8.17E-02
0.5855,6.42E-02
0.58575,6.71E-02
0.586,6.23E-02
0.58625,6.07E-02
0.5865,5.92E-02
0.58675,6.52E-02
0.587,1.09E-01
0.58725,5.92E-02
0.5875,5.32E-02
0.58775,5.98E-02
0.588,7.20E-02
0.58825,9.15E-02
0.5885,1.09E-01
0.58875,9.79E-02
0.589,6.95E-02
0.58925,6.24E-02
0.5895,9.79E-02
0.58975,4.66E-02
0.59,1.34E-01
0.59025,8.98E-02
0.5905,1.07E-01
0.59075,8.17E-02
0.591,7.19E-02
0.59125,3.93E-02
0.5915,1.22E-01
0.59175,1.21E-01
0.592,7.19E-02
0.59225,5.71E-02
0.5925,3.64E-02
0.59275,1.00E-01
0.593,7.78E-02
0.59325,6.83E-02
0.5935,7.60E-02
0.59375,5.60E-02
0.594,5.56E-02
0.59425,1.30E-01
0.5945,6.09E-02
0.59475,8.95E-02
0.595,1.28E-01
0.59525,4.18E-02
0.5955,8.80E-02
0.59575,8.41E-02
0.596,8.30E-02
0.59625,5.79E-02
0.5965,8.66E-02
0.59675,7.51E-02
0.597,5.46E-02
0.59725,1.23E-01
0.5975,5.02E-02
0.59775,7.37E-02
0.598,1.31E-01
0.59825,1.04E-01
0.5985,1.87E-02
0.59875,5.10E-02
0.599,1.28E-01
0.59925,6.80E-02
0.5995,9.44E-02
0.59975,9.67E-02
0.6,5.32E-02
0.60025,1.17E-01
0.6005,9.18E-02
0.60075,1.27E-01
0.601,9.87E-02
0.60125,9.81E-02
0.6015,7.33E-02
0.60175,5.21E-02
0.602,7.73E-02
0.60225,8.00E-02
0.6025,4.49E-02
0.60275,6.02E-02
0.603,1.10E-01
0.60325,1.31E-01
0.6035,1.13E-01
0.60375,9.39E-02
0.604,9.80E-02
0.60425,3.68E-02
0.6045,6.62E-02
0.60475,6.96E-02
0.605,5.08E-02
0.60525,3.84E-02
0.6055,8.62E-02
0.60575,1.05E-01
0.606,9.55E-02
0.60625,1.25E-01
0.6065,1.24E-01
0.60675,5.04E-02
0.607,1.04E-01
0.60725,6.07E-02
0.6075,4.61E-02
0.60775,7.02E-02
0.608,6.27E-02
0.60825,1.22E-01
0.6085,7.78E-02
0.60875,7.68E-02
0.609,6.08E-02
0.60925,6.25E-02
0.6095,1.23E-01
0.60975,1.07E-01
0.61,4.82E-02
0.61025,6.12E-02
0.6105,2.91E-02
0.61075,6.35E-02
0.611,4.37E-02
0.61125,6.21E-02
0.6115,8.13E-02
0.61175,8.79E-02
0.612,4.55E-02
0.61225,5.66E-02
0.6125,1.19E-01
0.61275,3.13E-02
0.613,1.02E-01
0.61325,7.67E-02
0.6135,1.18E-01
0.61375,9.76E-02
0.614,8.42E-02
0.61425,7.54E-02
0.6145,7.32E-02
0.61475,1.05E-01
0.615,6.58E-02
0.61525,1.22E-01
0.6155,1.01E-01
0.61575,7.53E-02
0.616,5.35E-02
0.61625,5.09E-02
0.6165,5.14E-02
0.61675,1.15E-01
0.617,5.44E-02
0.61725,3.99E-02
0.6175,9.44E-02
0.61775,3.43E-02
0.618,1.01E-01
0.61825,9.98E-02
0.6185,5.85E-02
0.61875,4.32E-02
0.619,9.65E-02
0.61925,7.67E-02
0.6195,6.40E-02
0.61975,9.69E-02
0.62,4.99E-02
0.62025,1.21E-01
0.6205,4.82E-02
0.62075,7.29E-02
0.621,9.13E-02
0.62125,2.99E-02
0.6215,3.97E-02
0.62175,7.89E-02
0.622,4.98E-02
0.62225,9.69E-02
0.6225,1.44E-01
0.62275,2.67E-02
0.623,1.05E-01
0.62325,1.96E-02
0.6235,3.72E-02
0.62375,9.86E-02
0.624,1.25E-01
0.62425,9.65E-02
0.6245,1.31E-01
0.62475,4.99E-02
0.625,8.01E-02
0.62525,9.00E-02
0.6255,5.43E-02
0.62575,1.03E-01
0.626,6.62E-02
0.62625,9.77E-02
0.6265,5.94E-02
0.62675,4.59E-02
0.627,1.08E-01
0.62725,1.15E-01
0.6275,1.03E-01
0.62775,1.08E-01
0.628,1.02E-01
0.62825,1.03E-01
0.6285,7.28E-02
0.62875,3.15E-02
0.629,9.29E-02
0.62925,9.72E-02
0.6295,2.87E-02
0.62975,1.03E-01
0.63,7.68E-02
0.63025,7.21E-02
0.6305,1.22E-01
0.63075,9.10E-02
0.631,3.62E-02
0.63125,1.35E-01
0.6315,7.66E-02
0.63175,7.93E-02
0.632,7.79E-02
0.63225,9.68E-02
0.6325,4.74E-02
0.63275,1.21E-01
0.633,8.51E-02
0.63325,1.21E-01
0.6335,1.22E-01
0.63375,5.94E-02
0.634,6.85E-02
0.63425,3.60E-02
0.6345,9.67E-02
0.63475,4.00E-02
0.635,8.81E-02
0.63525,5.60E-02
0.6355,1.17E-01
0.63575,2.87E-02
0.636,9.23E-02
0.63625,9.70E-02
0.6365,3.59E-02
0.63675,8.23E-02
0.637,6.32E-02
0.63725,8.42E-02
0.6375,8.01E-02
0.63775,6.83E-02
0.638,8.14E-02
0.63825,1.51E-01
0.6385,5.44E-02
0.63875,7.04E-02
0.639,1.33E-01
0.63925,4.51E-02
0.6395,5.44E-02
0.63975,1.23E-01
0.64,4.87E-02
